frame,time,temp,a0,temp_pres,pressure,altitude,humidity,temp_hum
0,574,85.00,1023,22.40,99470,156.11, NAN, NAN
1,1186,85.00,1021,22.40,99465,156.28, NAN, NAN
2,1799,24.13,1023,22.40,99467,156.36, NAN, NAN
3,2411,24.13,1023,22.40,99468,156.19, NAN, NAN
4,3026,24.19,1023,22.40,99466,156.11,26.70,22.70
5,3639,24.19,1023,22.40,99468,156.19,26.70,22.70
6,4250,24.19,1023,22.40,99466,156.11,26.70,22.70
7,4862,24.19,1023,22.40,99463,156.62,26.70,22.70
8,5478,24.19,1023,22.40,99470,156.11,28.00,22.70
9,6090,24.19,1022,22.40,99471,156.28,28.00,22.70
10,6711,24.19,1023,22.40,99467,155.77,28.00,22.70
11,7322,24.19,1023,22.40,99469,155.77,28.00,22.70
12,7938,24.19,1023,22.40,99468,155.94,28.00,22.70
13,8550,24.19,1023,22.40,99468,155.94,28.00,22.70
14,9162,24.19,1023,22.40,99466,156.02,28.00,22.70
15,9775,24.19,1023,22.40,99467,156.19,28.00,22.70
16,10390,24.19,1023,22.40,99471,156.36,28.00,22.70
17,11002,24.19,1023,22.40,99472,155.94,28.00,22.70
18,11615,24.19,1023,22.40,99470,156.02,28.00,22.70
19,12227,24.19,1022,22.40,99470,155.35,28.00,22.70
20,12851,24.19,1023,22.40,99471,155.77,27.90,22.70
21,13463,24.19,1023,22.40,99473,155.60,27.90,22.70
22,14075,24.19,1023,22.40,99468,156.02,27.90,22.70
23,14688,24.19,1023,22.40,99468,155.77,27.90,22.70
24,15302,24.19,1023,22.40,99470,155.77,27.90,22.70
25,15915,24.19,1021,22.40,99470,155.52,27.90,22.70
26,16527,24.19,1023,22.40,99468,155.77,27.90,22.70
27,17138,24.19,1023,22.40,99467,155.77,27.90,22.70
28,17755,24.19,1022,22.40,99473,155.35,27.90,22.70
29,18375,24.19,1023,22.40,99467,155.60,27.90,22.70
30,18987,24.19,1023,22.40,99467,155.85,27.90,22.70
31,19599,24.19,1022,22.40,99469,155.85,27.90,22.70
32,20214,24.19,1023,22.40,99468,155.77,27.90,22.70
33,20827,24.19,1023,22.40,99475,155.52,27.90,22.70
34,21439,24.19,1023,22.40,99475,155.77,27.90,22.70
35,22051,24.19,1023,22.40,99469,155.69,27.90,22.70
36,22667,24.19,1023,22.40,99468,155.77,27.90,22.70
37,23279,24.19,1023,22.40,99463,155.77,27.90,22.70
38,23891,24.19,1023,22.40,99459,155.94,27.90,22.70
39,24512,24.19,1023,22.40,99472,155.09,27.90,22.70
40,25126,24.19,1023,22.40,99468,155.94,27.90,22.70
41,25739,24.19,1021,22.40,99470,156.11,27.90,22.70
42,26351,24.19,1023,22.40,99469,155.85,27.90,22.70
43,26962,24.19,1023,22.40,99470,155.94,27.90,22.70
44,27578,24.19,1023,22.40,99466,155.85,28.00,22.70
45,28190,24.19,1023,22.40,99470,155.94,28.00,22.70
46,28803,24.19,1023,22.40,99473,155.94,28.00,22.70
47,29415,24.19,1023,22.40,99468,155.69,28.00,22.70
48,30030,24.19,1023,22.40,99471,155.52,28.00,22.70
49,30651,24.19,1023,22.40,99472,155.52,28.00,22.70
50,31263,24.19,1022,22.40,99472,155.77,28.00,22.70
51,31875,24.19,1023,22.40,99478,155.35,28.00,22.70
52,32490,24.19,1021,22.40,99472,155.26,28.00,22.70
53,33102,24.19,1023,22.40,99474,154.84,28.00,22.70
54,33715,24.19,1023,22.40,99473,155.69,28.00,22.70
55,34327,24.19,1023,22.40,99472,155.69,28.00,22.70
56,34942,24.19,1023,22.40,99470,155.60,28.00,22.70
57,35555,24.19,1022,22.40,99477,155.69,28.00,22.70
58,36167,24.19,1022,22.40,99474,155.52,28.00,22.70
59,36788,24.19,1023,22.40,99472,155.52,28.00,22.70
60,37403,24.19,1023,22.40,99473,155.77,28.00,22.70
61,38014,24.19,1023,22.40,99468,155.94,28.00,22.70
62,38627,24.19,1022,22.40,99472,155.77,28.00,22.70
63,39239,24.19,1023,22.40,99473,155.26,28.00,22.70
64,39855,24.19,1023,22.40,99467,155.60,28.00,22.70
65,40467,24.19,1022,22.40,99468,155.94,28.00,22.70
66,41079,24.19,1023,22.40,99465,156.11,28.00,22.70
67,41692,24.19,1023,22.40,99468,155.77,28.00,22.70
68,42307,24.19,1023,22.40,99473,155.09,28.00,22.70
69,42928,24.19,1023,22.40,99469,155.77,28.00,22.70
70,43540,24.19,1023,22.40,99468,155.52,28.00,22.70
71,44151,24.19,1021,22.40,99471,155.35,28.00,22.70
72,44768,24.19,1023,22.40,99467,155.77,28.00,22.80
73,45379,24.19,1023,22.40,99474,155.43,28.00,22.80
74,45991,24.19,1023,22.40,99472,155.52,28.00,22.80
75,46604,24.19,1023,22.40,99468,155.85,28.00,22.80
76,47219,24.19,1023,22.40,99471,155.35,28.00,22.70
77,47832,24.19,1023,22.40,99469,155.69,28.00,22.70
78,48444,24.19,1023,22.40,99466,155.85,28.00,22.70
79,49071,24.19,1023,22.40,99468,155.26,28.00,22.70
80,49689,24.19,1023,22.40,99468,155.77,28.00,22.70
81,50304,24.19,1022,22.40,99466,155.85,28.00,22.70
82,50918,24.19,1023,22.40,99468,155.94,28.00,22.70
83,51532,24.19,1023,22.40,99466,155.60,28.00,22.70
84,52151,24.19,1023,22.40,99468,155.69,28.10,22.80
85,52765,24.19,1023,22.40,99468,155.26,28.10,22.80
86,53380,24.19,1023,22.40,99468,155.26,28.10,22.80
87,53995,24.19,1023,22.40,99472,155.69,28.10,22.80
88,54612,24.19,1023,22.40,99466,155.52,28.10,22.80
89,55258,24.19,1023,22.40,99466,155.85,28.10,22.80
90,55872,24.19,1023,22.40,99468,155.60,28.10,22.80
91,56486,24.19,1023,22.40,99467,155.94,28.10,22.80
92,57105,24.19,1023,22.40,99472,155.69,28.10,22.80
93,57719,24.19,1023,22.40,99470,155.77,28.10,22.80
94,58335,24.19,1023,22.40,99470,155.43,28.10,22.80
95,58949,24.19,1023,22.40,99468,155.52,28.10,22.80
96,59567,24.19,1023,22.40,99468,155.94,28.10,22.80
97,60182,24.19,1022,22.40,99468,156.19,28.10,22.80
98,60805,24.31,1023,22.40,99472,155.60,28.10,22.80
99,61419,24.31,1023,22.40,99468,155.01,28.10,22.80
100,62049,24.56,1023,22.40,99469,155.60,28.10,22.80
101,62663,24.56,1022,22.40,99467,155.60,28.10,22.80
102,63278,24.94,1023,22.40,99472,155.77,28.10,22.80
103,63893,24.94,1023,22.40,99470,155.43,28.10,22.80
104,64510,25.31,1023,22.40,99465,155.77,28.10,22.80
105,65126,25.31,1023,22.40,99465,155.94,28.10,22.80
106,65740,25.75,1023,22.40,99466,155.85,28.10,22.80
107,66355,25.75,1023,22.40,99464,156.11,28.10,22.80
108,66981,26.19,1022,22.40,99470,155.69,28.10,22.80
109,67596,26.19,1023,22.40,99469,155.52,28.10,22.80
110,68210,26.75,1023,22.40,99465,156.11,28.10,22.80
111,68826,26.75,1023,22.40,99464,155.60,28.10,22.80
112,69443,27.44,1023,22.40,99468,155.69,28.20,22.80
113,70057,27.44,1023,22.40,99470,155.26,28.20,22.80
114,70673,28.06,1022,22.40,99467,155.43,28.20,22.80
115,71287,28.06,1023,22.40,99461,155.43,28.20,22.80
116,71919,28.69,1022,22.40,99469,155.60,28.20,22.80
117,72535,28.69,1022,22.40,99464,155.69,28.20,22.80
118,73157,29.31,1023,22.40,99473,155.52,28.20,22.80
119,73772,29.31,1023,22.40,99468,155.77,28.20,22.80
120,74390,29.88,1023,22.40,99468,155.77,28.20,22.80
121,75004,29.88,1021,22.40,99469,156.02,28.20,22.80
122,75619,30.44,1023,22.40,99471,155.77,28.20,22.80
123,76234,30.44,1023,22.40,99465,155.77,28.20,22.80
124,76852,30.94,1023,22.40,99471,155.85,28.20,22.80
125,77467,30.94,1023,22.40,99471,155.60,28.20,22.80
126,78082,31.50,1023,22.40,99466,155.77,28.20,22.80
127,78704,31.50,1023,22.40,99467,155.77,28.20,22.80
128,79323,32.13,1023,22.40,99468,155.77,28.20,22.80
129,79937,32.13,1023,22.40,99469,155.52,28.20,22.80
130,80551,32.69,1023,22.40,99467,155.77,28.20,22.80
131,81167,32.69,1023,22.40,99461,155.69,28.20,22.80
132,81784,33.25,1023,22.40,99466,155.77,28.10,22.80
133,82400,33.25,1023,22.40,99464,155.69,28.10,22.80
134,83014,33.75,1023,22.40,99466,155.94,28.10,22.80
135,83629,33.75,1023,22.40,99468,155.94,28.10,22.80
136,84247,34.25,1023,22.40,99469,155.77,28.10,22.80
137,84870,34.25,1023,22.40,99466,155.69,28.10,22.80
138,85484,34.75,1023,22.40,99470,155.77,28.10,22.80
139,86099,34.75,1023,22.40,99468,155.60,28.10,22.80
140,86718,35.31,1023,22.40,99466,156.02,28.10,22.80
141,87332,35.31,1023,22.40,99468,155.69,28.10,22.80
142,87947,35.94,1023,22.40,99467,155.77,28.10,22.80
143,88562,35.94,1023,22.40,99470,155.69,28.10,22.80
144,89180,36.56,1022,22.40,99468,155.77,28.10,22.80
145,89795,36.56,1023,22.40,99469,155.77,28.10,22.80
146,90409,37.13,1023,22.40,99462,156.45,28.10,22.80
147,91032,37.13,1023,22.40,99467,155.77,28.10,22.80
148,91651,37.63,1023,22.40,99464,156.19,28.10,22.80
149,92265,37.63,1022,22.40,99468,155.94,28.10,22.80
150,92879,38.00,1023,22.40,99467,156.36,28.10,22.80
151,93495,38.00,1023,22.40,99468,155.77,28.10,22.80
152,94113,38.38,1023,22.40,99463,156.19,28.10,22.80
153,94728,38.38,1023,22.40,99461,155.94,28.10,22.80
154,95342,38.69,1023,22.40,99464,156.11,28.10,22.80
155,95958,38.69,1023,22.40,99458,156.28,28.10,22.80
156,96594,39.06,1022,22.40,99468,156.02,28.10,22.80
157,97209,39.06,1023,22.40,99468,156.28,28.10,22.80
158,97823,39.56,1023,22.40,99467,156.11,28.10,22.80
159,98438,39.56,1023,22.40,99470,155.77,28.10,22.80
160,99056,40.06,1023,22.40,99466,155.94,28.10,22.80
161,99671,40.06,1023,22.40,99464,156.19,28.10,22.80
162,100286,40.63,1023,22.40,99461,156.19,28.10,22.80
163,100900,40.63,1023,22.40,99466,156.02,28.10,22.80
164,101519,41.13,1023,22.40,99467,155.85,28.10,22.80
165,102133,41.13,1023,22.40,99471,155.94,28.10,22.80
166,102756,41.50,1023,22.40,99465,156.28,28.10,22.80
167,103371,41.50,1023,22.40,99470,155.77,28.10,22.80
168,103989,41.94,1023,22.40,99463,155.77,28.10,22.80
169,104604,41.94,1023,22.40,99468,155.52,28.10,22.80
170,105219,42.56,1023,22.40,99470,155.85,28.10,22.80
171,105833,42.56,1023,22.40,99469,156.28,28.10,22.80
172,106451,43.25,1023,22.40,99469,156.28,28.00,22.80
173,107066,43.25,1023,22.40,99468,155.77,28.00,22.80
174,107681,43.88,1023,22.40,99470,155.35,28.00,22.80
175,108304,43.88,1023,22.40,99469,155.77,28.00,22.80
176,108922,44.50,1023,22.40,99470,155.77,28.00,22.80
177,109537,44.50,1021,22.40,99468,155.69,28.00,22.80
178,110152,45.00,1023,22.40,99469,155.94,28.00,22.80
179,110767,45.00,1022,22.40,99463,156.11,28.00,22.80
180,111385,45.63,1023,22.40,99466,156.28,27.90,22.80
181,112000,45.63,1023,22.40,99466,155.94,27.90,22.80
182,112615,46.31,1023,22.40,99471,155.35,27.90,22.80
183,113229,46.31,1023,22.40,99463,155.60,27.90,22.80
184,113848,46.94,1023,22.40,99467,155.60,27.90,22.80
185,114470,46.94,1023,22.40,99468,155.77,27.90,22.80
186,115085,47.44,1023,22.40,99471,155.69,27.90,22.80
187,115700,47.44,1023,22.40,99468,155.69,27.90,22.80
188,116319,47.88,1023,22.40,99469,155.69,27.90,22.80
189,116933,47.88,1022,22.40,99462,155.94,27.90,22.80
190,117549,48.44,1023,22.40,99469,155.60,27.90,22.80
191,118163,48.44,1023,22.40,99464,155.85,27.90,22.80
192,118781,48.94,1023,22.40,99464,155.85,28.00,22.90
193,119396,48.94,1023,22.40,99467,155.69,28.00,22.90
194,120018,49.56,1023,22.40,99471,155.77,28.00,22.90
195,120634,49.56,1023,22.40,99472,155.77,28.00,22.90
196,121251,50.13,1023,22.40,99474,155.69,27.90,22.80
197,121867,50.13,1023,22.40,99473,155.77,27.90,22.80
198,122481,50.69,1023,22.40,99468,155.77,27.90,22.80
199,123096,50.69,1023,22.40,99467,155.77,27.90,22.80
200,123714,51.38,1023,22.40,99468,155.94,27.90,22.80
201,124328,51.38,1023,22.50,99465,155.77,27.90,22.80
202,124944,52.06,1022,22.40,99469,155.77,27.90,22.80
203,125558,52.06,1023,22.40,99468,156.11,27.90,22.80
204,126185,52.63,1023,22.40,99466,155.85,27.90,22.80
205,126799,52.63,1023,22.40,99473,155.77,27.90,22.80
206,127414,53.13,1023,22.40,99466,156.19,27.90,22.80
207,128029,53.13,1023,22.40,99468,156.11,27.90,22.80
208,128647,53.50,1023,22.50,99469,155.60,28.00,22.90
209,129262,53.50,1023,22.40,99473,156.19,28.00,22.90
210,129876,54.00,1023,22.50,99467,155.77,28.00,22.90
211,130491,54.00,1023,22.40,99473,155.60,28.00,22.90
212,131109,54.56,1023,22.50,99472,155.09,27.90,22.90
213,131733,54.56,1023,22.50,99461,155.69,27.90,22.90
214,132347,55.13,1023,22.50,99467,155.85,27.90,22.90
215,132962,55.13,1023,22.50,99465,155.60,27.90,22.90
216,133580,55.56,1023,22.50,99468,155.69,27.90,22.90
217,134195,55.56,1023,22.50,99470,155.85,27.90,22.90
218,134810,56.00,1022,22.50,99468,155.85,27.90,22.90
219,135425,56.00,1023,22.50,99460,155.94,27.90,22.90
220,136043,56.38,1022,22.50,99466,156.02,27.90,22.90
221,136657,56.38,1023,22.50,99470,155.94,27.90,22.90
222,137272,56.81,1023,22.50,99469,156.02,27.90,22.90
223,137895,56.81,1023,22.50,99467,156.11,27.90,22.90
224,138513,57.13,1023,22.50,99466,155.35,27.90,22.90
225,139128,57.13,1023,22.50,99472,155.52,27.90,22.90
226,139743,57.44,1023,22.50,99468,155.77,27.90,22.90
227,140357,57.44,1022,22.50,99467,156.11,27.90,22.90
228,140976,57.81,1022,22.50,99468,155.77,27.80,22.80
229,141590,57.81,1023,22.50,99468,155.60,27.80,22.80
230,142204,58.13,1023,22.50,99470,155.77,27.80,22.80
231,142820,58.13,1023,22.50,99472,155.85,27.80,22.80
232,143544,58.50,1022,22.50,99471,155.77,27.90,22.90
233,144159,58.50,1023,22.50,99469,156.02,27.90,22.90
234,144774,59.06,1023,22.50,99467,156.36,27.90,22.90
235,145388,59.06,1023,22.50,99469,155.52,27.90,22.90
236,146007,59.63,1023,22.50,99474,155.69,27.90,22.80
237,146621,59.63,1023,22.50,99467,155.69,27.90,22.80
238,147235,60.25,1023,22.50,99469,155.18,27.90,22.80
239,147851,60.25,1023,22.50,99468,156.45,27.90,22.80
240,148469,60.75,1023,22.50,99466,155.69,27.90,22.90
241,149084,60.75,1023,22.50,99468,155.94,27.90,22.90
242,149706,61.31,1023,22.50,99471,155.69,27.90,22.90
243,150321,61.31,1023,22.50,99469,155.85,27.90,22.90
244,150939,61.94,1023,22.50,99465,155.52,27.80,22.90
245,151555,61.94,1022,22.50,99473,156.11,27.80,22.90
246,152169,62.56,1023,22.50,99466,155.43,27.80,22.90
247,152783,62.56,1023,22.50,99466,155.18,27.80,22.90
248,153402,63.13,1023,22.50,99466,155.85,27.70,22.80
249,154017,63.13,1023,22.50,99469,155.94,27.70,22.80
250,154632,63.69,1023,22.50,99469,155.85,27.70,22.80
251,155254,63.69,1022,22.50,99465,155.85,27.70,22.80
252,155873,64.38,1023,22.50,99467,156.36,27.70,22.90
253,156487,64.38,1023,22.50,99471,155.77,27.70,22.90
254,157103,65.06,1022,22.50,99467,155.69,27.70,22.90
255,157717,65.06,1023,22.50,99471,156.19,27.70,22.90
256,158336,65.63,1023,22.50,99469,155.69,27.70,22.90
257,158950,65.63,1023,22.50,99467,155.77,27.70,22.90
258,159565,66.19,1023,22.50,99468,155.94,27.70,22.90
259,160180,66.19,1023,22.50,99467,155.69,27.70,22.90
260,160798,66.69,1023,22.50,99470,155.52,27.70,22.90
261,161421,66.69,1023,22.50,99469,155.35,27.70,22.90
262,162036,67.13,1022,22.50,99463,155.85,27.70,22.90
263,162651,67.13,1023,22.50,99468,156.02,27.70,22.90
264,163269,67.69,1023,22.50,99470,155.69,27.70,22.90
265,163885,67.69,1023,22.50,99468,155.94,27.70,22.90
266,164499,68.31,1023,22.50,99471,155.60,27.70,22.90
267,165113,68.31,1023,22.50,99470,156.02,27.70,22.90
268,165732,68.94,1023,22.50,99470,155.77,27.70,22.90
269,166347,68.94,1023,22.50,99467,155.77,27.70,22.90
270,166970,69.56,1023,22.50,99471,155.94,27.70,22.90
271,167584,69.56,1023,22.50,99468,155.52,27.70,22.90
272,168203,70.13,1023,22.50,99469,155.60,27.70,22.90
273,168818,70.13,1023,22.50,99469,155.69,27.70,22.90
274,169433,70.75,1022,22.50,99468,156.11,27.70,22.90
275,170047,70.75,1023,22.50,99473,155.60,27.70,22.90
276,170665,71.31,1023,22.50,99469,155.77,27.70,22.90
277,171281,71.31,1023,22.50,99467,155.69,27.70,22.90
278,171895,71.88,1023,22.50,99467,155.85,27.70,22.90
279,172511,71.88,1023,22.50,99466,156.11,27.70,22.90
280,173136,72.50,1023,22.50,99466,156.45,27.60,22.90
281,173751,72.50,1023,22.50,99464,155.69,27.60,22.90
282,174366,73.13,1023,22.50,99470,155.43,27.60,22.90
283,174981,73.13,1023,22.50,99464,155.85,27.60,22.90
284,175599,73.75,1022,22.50,99471,155.60,27.60,22.90
285,176214,73.75,1023,22.50,99466,155.69,27.60,22.90
286,176829,74.38,1023,22.50,99468,155.77,27.60,22.90
287,177443,74.38,1023,22.50,99466,155.94,27.60,22.90
288,178062,75.00,1023,22.50,99472,155.09,27.60,22.90
289,178684,75.00,1023,22.50,99475,155.43,27.60,22.90
290,179299,75.50,1023,22.50,99471,155.18,27.60,22.90
291,179914,75.50,1023,22.60,99467,155.52,27.60,22.90
292,180533,76.06,1023,22.50,99471,155.77,27.70,22.90
293,181147,76.06,1023,22.50,99465,155.69,27.70,22.90
294,181762,76.63,1023,22.50,99469,155.60,27.70,22.90
295,182377,76.63,1023,22.60,99469,155.69,27.70,22.90
296,182995,77.19,1023,22.50,99469,155.26,27.80,22.90
297,183610,77.19,1023,22.60,99472,155.52,27.80,22.90
298,184224,77.81,1023,22.60,99470,155.26,27.80,22.90
299,184848,77.81,1023,22.60,99469,155.43,27.80,22.90
300,185465,78.44,1023,22.60,99473,155.43,27.70,22.90
301,186081,78.44,1023,22.60,99472,155.35,27.70,22.90
302,186695,79.00,1023,22.60,99468,155.43,27.70,22.90
303,187311,79.00,1023,22.60,99472,155.18,27.70,22.90
304,187928,79.56,1023,22.60,99469,155.01,28.20,23.00
305,188544,79.56,1023,22.60,99468,155.69,28.20,23.00
306,189158,80.13,1022,22.60,99472,155.43,28.20,23.00
307,189772,80.13,1023,22.60,99468,155.35,28.20,23.00
308,190409,80.63,1023,22.60,99468,155.43,28.60,23.00
309,191025,80.63,1023,22.60,99470,155.43,28.60,23.00
310,191639,81.06,1023,22.60,99471,155.77,28.60,23.00
311,192253,81.06,1023,22.60,99471,155.26,28.60,23.00
312,192872,81.50,1023,22.60,99469,155.09,29.20,22.90
313,193486,81.50,1022,22.60,99472,155.52,29.20,22.90
314,194101,82.00,1023,22.60,99469,155.09,29.20,22.90
315,194716,82.00,1022,22.60,99472,155.60,29.20,22.90
316,195334,82.50,1023,22.60,99474,155.43,29.60,23.00
317,195949,82.50,1023,22.60,99467,155.77,29.60,23.00
318,196572,83.06,1023,22.60,99472,155.35,29.60,23.00
319,197186,83.06,1023,22.60,99475,155.85,29.60,23.00
320,197804,83.63,1023,22.60,99473,155.94,29.70,23.00
321,198419,83.63,1023,22.60,99472,155.60,29.70,23.00
322,199033,84.19,1021,22.60,99464,155.69,29.70,23.00
323,199648,84.19,1022,22.60,99475,155.26,29.70,23.00
324,200266,84.75,1023,22.60,99467,155.26,29.40,23.00
325,200881,84.75,1023,22.60,99472,155.35,29.40,23.00
326,201496,85.38,1023,22.60,99469,155.35,29.40,23.00
327,202119,85.38,1023,22.60,99469,155.77,29.40,23.00
328,202760,86.06,1023,22.60,99470,155.69,29.40,23.00
329,203374,86.06,1023,22.60,99468,155.60,29.40,23.00
330,203990,86.63,1023,22.60,99470,155.60,29.40,23.00
331,204604,86.63,1023,22.60,99470,155.26,29.40,23.00
332,205222,87.19,1023,22.60,99482,155.26,29.90,23.10
333,205837,87.19,1023,22.60,99475,155.18,29.90,23.10
334,206452,87.63,1023,22.60,99477,155.35,29.90,23.10
335,207067,87.63,1023,22.60,99480,155.01,29.90,23.10
336,207685,88.13,1023,22.60,99474,155.85,30.00,23.00
337,208308,88.13,1023,22.60,99479,155.43,30.00,23.00
338,208922,88.50,1023,22.60,99474,155.18,30.00,23.00
339,209537,88.50,1022,22.60,99471,155.35,30.00,23.00
340,210155,88.94,1023,22.60,99471,155.77,32.30,23.10
341,210769,88.94,1023,22.60,99472,155.69,32.30,23.10
342,211384,89.31,1023,22.60,99471,155.35,32.30,23.10
343,211999,89.31,1022,22.60,99470,155.35,32.30,23.10
344,212618,89.69,1023,22.60,99473,155.26,31.90,23.10
345,213232,89.69,1023,22.60,99468,155.43,31.90,23.10
346,213855,90.19,1023,22.60,99473,156.36,31.90,23.10
347,214469,90.19,1023,22.60,99470,156.02,31.90,23.10
348,215101,90.63,1022,22.60,99468,156.19,31.50,23.10
349,215715,90.63,1022,22.60,99468,155.60,31.50,23.10
350,216342,91.19,1022,22.60,99467,155.94,31.50,23.10
351,216956,91.19,1023,22.60,99475,155.35,31.50,23.10
352,217574,91.69,1023,22.60,99473,155.77,31.20,23.20
353,218189,91.69,1023,22.60,99468,155.77,31.20,23.20
354,218804,92.25,1023,22.70,99470,155.43,31.20,23.20
355,219418,92.25,1023,22.60,99474,155.77,31.20,23.20
356,220045,92.75,1023,22.60,99468,156.02,30.80,23.10
357,220659,92.75,1023,22.70,99465,155.60,30.80,23.10
358,221274,93.31,1023,22.70,99468,155.77,30.80,23.10
359,221888,93.31,1023,22.70,99464,155.60,30.80,23.10
360,222507,93.81,1022,22.70,99470,155.77,30.60,23.20
361,223121,93.81,1023,22.70,99469,155.43,30.60,23.20
362,223736,94.25,1023,22.70,99470,155.09,30.60,23.20
363,224351,94.25,1023,22.70,99480,155.69,30.60,23.20
364,224968,94.75,1022,22.70,99472,155.43,30.40,23.20
365,225592,94.75,1022,22.70,99472,155.01,30.40,23.20
366,226206,95.19,1023,22.70,99472,155.94,30.40,23.20
367,226821,95.19,1023,22.70,99478,155.18,30.40,23.20
368,227439,95.69,1023,22.70,99468,155.52,30.30,23.20
369,228054,95.69,1023,22.70,99464,155.69,30.30,23.20
370,228669,96.13,1023,22.70,99472,155.26,30.30,23.20
371,229283,96.13,1022,22.70,99473,155.77,30.30,23.20
372,229903,96.50,1023,22.70,99468,155.35,30.60,23.30
373,230517,96.50,1023,22.70,99475,155.09,30.60,23.30
374,231132,96.81,1023,22.70,99475,155.35,30.60,23.30
375,231755,96.81,1023,22.70,99473,155.26,30.60,23.30
376,232373,97.13,1023,22.70,99471,155.60,30.50,23.30
377,232987,97.13,1023,22.70,99475,155.60,30.50,23.30
378,233603,97.38,1023,22.70,99479,155.43,30.50,23.30
379,234217,97.38,1023,22.70,99468,155.43,30.50,23.30
380,234835,97.63,1022,22.70,99470,155.26,30.50,23.30
